

Software Version	3.0.1



Experiment File Path:
Protocol File Path:	DB:\USER\123456 - genetic file name.prt



Plate Number	Plate 2
Date	09/15/2023
Time	12:30:01 PM
Reader Type:	Generic Reader
Reader Serial Number:	123456
Reading Type	Reader

Procedure Details

Plate Type	Generic_Plate_123
Set Temperature	Setpoint 30∞C
	Preheat before moving to next step
Start Kinetic	Runtime 66:35:00 (HH:MM:SS), Interval 0:04:00, 999 Reads
    Shake	Fast, 0:20 (MM:SS)
    Read	Absorbance Endpoint
	Full Plate
	Wavelengths:  600
	Read Speed: Normal,  Delay: 100 msec,  Measurements/Data Point: 8
End Kinetic

600

Time	T∞ 600	A1	A2	A3	A4	A5	A6	B1	B2	B3	B4	B5	B6	C1	C2	C3	C4	C5	C6	D1	D2	D3	D4	D5	D6
0:00:22	30.0	-0.066	-0.068	-0.054	-0.055	-0.063	-0.060	-0.058	-0.060	-0.063	-0.064	-0.054	-0.059	-0.062	-0.062	-0.063	-0.062	-0.059	-0.060	-0.063	-0.063	-0.062	-0.064	-0.063	-0.060
0:04:22	30.0	-0.068	-0.068	-0.053	-0.055	-0.064	-0.062	-0.058	-0.057	-0.064	-0.061	-0.054	-0.058	-0.062	-0.062	-0.064	-0.064	-0.061	-0.060	-0.063	-0.063	-0.061	-0.062	-0.062	-0.059
0:08:22	30.0	-0.068	-0.069	-0.054	-0.056	-0.066	-0.062	-0.058	-0.057	-0.064	-0.062	-0.056	-0.057	-0.062	-0.062	-0.065	-0.065	-0.063	-0.061	-0.064	-0.064	-0.062	-0.062	-0.063	-0.060
0:12:22	30.0	-0.068	-0.070	-0.055	-0.056	-0.067	-0.064	-0.058	-0.057	-0.064	-0.065	-0.056	-0.056	-0.063	-0.062	-0.066	-0.066	-0.064	-0.062	-0.064	-0.064	-0.062	-0.062	-0.064	-0.061
0:16:22	30.0	-0.067	-0.070	-0.055	-0.055	-0.066	-0.063	-0.057	-0.057	-0.064	-0.064	-0.055	-0.055	-0.062	-0.061	-0.065	-0.065	-0.063	-0.062	-0.062	-0.063	-0.061	-0.060	-0.063	-0.061
0:20:22	30.0	-0.067	-0.068	-0.054	-0.055	-0.065	-0.063	-0.057	-0.056	-0.064	-0.064	-0.054	-0.054	-0.061	-0.061	-0.063	-0.065	-0.062	-0.061	-0.060	-0.062	-0.060	-0.060	-0.062	-0.060
0:24:22	30.0	-0.066	-0.068	-0.054	-0.055	-0.065	-0.062	-0.057	-0.055	-0.064	-0.063	-0.054	-0.053	-0.061	-0.060	-0.063	-0.064	-0.062	-0.061	-0.059	-0.061	-0.060	-0.060	-0.062	-0.059
0:28:22	30.0	-0.067	-0.068	-0.055	-0.055	-0.065	-0.062	-0.057	-0.056	-0.064	-0.064	-0.053	-0.053	-0.061	-0.061	-0.063	-0.064	-0.062	-0.061	-0.059	-0.061	-0.060	-0.060	-0.062	-0.059
0:32:22	30.0	-0.066	-0.068	-0.055	-0.055	-0.065	-0.062	-0.057	-0.056	-0.064	-0.064	-0.053	-0.053	-0.061	-0.061	-0.063	-0.065	-0.062	-0.061	-0.059	-0.061	-0.061	-0.060	-0.062	-0.059
0:36:22	30.0	-0.066	-0.068	-0.054	-0.055	-0.065	-0.062	-0.057	-0.055	-0.064	-0.063	-0.053	-0.053	-0.059	-0.061	-0.063	-0.064	-0.061	-0.061	-0.059	-0.060	-0.060	-0.060	-0.062	-0.058
0:40:22	30.0	-0.066	-0.068	-0.055	-0.055	-0.065	-0.062	-0.057	-0.055	-0.064	-0.064	-0.053	-0.052	-0.060	-0.060	-0.063	-0.064	-0.061	-0.061	-0.058	-0.060	-0.061	-0.060	-0.061	-0.058
0:44:22	30.0	-0.066	-0.068	-0.055	-0.055	-0.065	-0.062	-0.057	-0.055	-0.063	-0.064	-0.052	-0.052	-0.060	-0.060	-0.063	-0.064	-0.062	-0.061	-0.058	-0.060	-0.061	-0.060	-0.061	-0.058
0:48:22	30.0	-0.066	-0.068	-0.054	-0.055	-0.065	-0.063	-0.057	-0.056	-0.064	-0.064	-0.052	-0.052	-0.060	-0.060	-0.063	-0.064	-0.061	-0.061	-0.058	-0.060	-0.061	-0.060	-0.061	-0.058
0:52:22	30.0	-0.066	-0.067	-0.054	-0.054	-0.065	-0.062	-0.057	-0.055	-0.064	-0.064	-0.052	-0.052	-0.059	-0.059	-0.063	-0.064	-0.061	-0.061	-0.057	-0.059	-0.061	-0.060	-0.061	-0.058
0:56:22	30.0	-0.066	-0.068	-0.054	-0.054	-0.065	-0.062	-0.057	-0.055	-0.063	-0.064	-0.052	-0.051	-0.059	-0.059	-0.063	-0.064	-0.060	-0.061	-0.057	-0.060	-0.061	-0.060	-0.061	-0.058
1:00:22	30.0	-0.066	-0.068	-0.054	-0.054	-0.065	-0.062	-0.056	-0.055	-0.063	-0.064	-0.051	-0.051	-0.059	-0.059	-0.063	-0.064	-0.060	-0.061	-0.056	-0.060	-0.061	-0.060	-0.061	-0.058
1:04:22	30.0	-0.066	-0.067	-0.054	-0.054	-0.065	-0.062	-0.056	-0.055	-0.063	-0.064	-0.052	-0.051	-0.058	-0.058	-0.062	-0.064	-0.060	-0.060	-0.056	-0.059	-0.060	-0.060	-0.061	-0.057
1:08:22	30.0	-0.066	-0.068	-0.054	-0.054	-0.065	-0.062	-0.056	-0.055	-0.063	-0.064	-0.052	-0.051	-0.058	-0.058	-0.063	-0.064	-0.060	-0.061	-0.056	-0.059	-0.060	-0.060	-0.061	-0.057
1:12:22	30.0	-0.066	-0.067	-0.053	-0.054	-0.065	-0.062	-0.056	-0.054	-0.063	-0.063	-0.051	-0.051	-0.058	-0.058	-0.063	-0.064	-0.060	-0.060	-0.056	-0.059	-0.061	-0.060	-0.060	-0.057
1:16:22	30.0	-0.066	-0.067	-0.053	-0.053	-0.064	-0.062	-0.056	-0.054	-0.063	-0.064	-0.051	-0.050	-0.058	-0.057	-0.062	-0.064	-0.060	-0.060	-0.051	-0.058	-0.061	-0.060	-0.060	-0.056
0:00:00
0:00:00
0:00:00
0:00:00
0:00:00
0:00:00
0:00:00
0:00:00
0:00:00
0:00:00
0:00:00
0:00:00
0:00:00
0:00:00
0:00:00
0:00:00
0:00:00
0:00:00
0:00:00
0:00:00
0:00:00
0:00:00
0:00:00
0:00:00
0:00:00
0:00:00
0:00:00
0:00:00
0:00:00
0:00:00
0:00:00
0:00:00
0:00:00
0:00:00
0:00:00
0:00:00
0:00:00
0:00:00
0:00:00
0:00:00
0:00:00
0:00:00
0:00:00
0:00:00
0:00:00
0:00:00
0:00:00
0:00:00
0:00:00
0:00:00
0:00:00
0:00:00
0:00:00
0:00:00
0:00:00
0:00:00
0:00:00
0:00:00
0:00:00
0:00:00
0:00:00
0:00:00
0:00:00
0:00:00
0:00:00
0:00:00
0:00:00
0:00:00
0:00:00
0:00:00
0:00:00
0:00:00
0:00:00
0:00:00
0:00:00
0:00:00
0:00:00
0:00:00
0:00:00
0:00:00
0:00:00
0:00:00
0:00:00
0:00:00
0:00:00
0:00:00
0:00:00
0:00:00
0:00:00
0:00:00
0:00:00
0:00:00
0:00:00
0:00:00
0:00:00
0:00:00
0:00:00
0:00:00
0:00:00
0:00:00
0:00:00
0:00:00
0:00:00
0:00:00
0:00:00
0:00:00
0:00:00
0:00:00
0:00:00
0:00:00
0:00:00
0:00:00
0:00:00
0:00:00
0:00:00
0:00:00
0:00:00
0:00:00
0:00:00
0:00:00
0:00:00
0:00:00
0:00:00
0:00:00
0:00:00
0:00:00
0:00:00
0:00:00
0:00:00
0:00:00
0:00:00
0:00:00
0:00:00
0:00:00
0:00:00
0:00:00
0:00:00
0:00:00
0:00:00
0:00:00
0:00:00
0:00:00
0:00:00
0:00:00
0:00:00
0:00:00
0:00:00
0:00:00
0:00:00
0:00:00
0:00:00
0:00:00
0:00:00
0:00:00
0:00:00
0:00:00
0:00:00
0:00:00
0:00:00
0:00:00
0:00:00
0:00:00
0:00:00
0:00:00
0:00:00
0:00:00
0:00:00
0:00:00
0:00:00
0:00:00
0:00:00
0:00:00
0:00:00
0:00:00
0:00:00
0:00:00
0:00:00
0:00:00
0:00:00
0:00:00
0:00:00
0:00:00
0:00:00
0:00:00
0:00:00
0:00:00
0:00:00
0:00:00
0:00:00
0:00:00
0:00:00
0:00:00
0:00:00
0:00:00
0:00:00
0:00:00
0:00:00
0:00:00
0:00:00
0:00:00
0:00:00
0:00:00
0:00:00
0:00:00
0:00:00
0:00:00
0:00:00
0:00:00
0:00:00
0:00:00
0:00:00
0:00:00
0:00:00
0:00:00
0:00:00
0:00:00
0:00:00
0:00:00
0:00:00
0:00:00
0:00:00
0:00:00
0:00:00
0:00:00
0:00:00
0:00:00
0:00:00
0:00:00
0:00:00
0:00:00
0:00:00
0:00:00
0:00:00
0:00:00
0:00:00
0:00:00
0:00:00
0:00:00
0:00:00
0:00:00
0:00:00
0:00:00
0:00:00
0:00:00
0:00:00
0:00:00
0:00:00
0:00:00
0:00:00
0:00:00
0:00:00
0:00:00
0:00:00
0:00:00
0:00:00
0:00:00
0:00:00
0:00:00
0:00:00
0:00:00
0:00:00
0:00:00
0:00:00
0:00:00
0:00:00
0:00:00
0:00:00
0:00:00
0:00:00
0:00:00
0:00:00
0:00:00
0:00:00
0:00:00
0:00:00
0:00:00
0:00:00
0:00:00
0:00:00
0:00:00
0:00:00
0:00:00
0:00:00
0:00:00
0:00:00
0:00:00
0:00:00
0:00:00
0:00:00
0:00:00
0:00:00

Results
	1	2	3	4	5	6
A	0.750	0.500	3.825	3.150	5.300	3.700	Max V [600]
	1.000	1.000	1.000	1.000	1.000	1.000	R-Squared [600]
	10:10:22	0:18:22	22:50:22	24:26:22	32:54:22	34:06:22	t at Max V [600]
	10:08:22	0:20:22	21:32:38	22:29:52	31:45:55	32:08:30	Lagtime [600]
B	-3.900	3.650	4.900	-4.550	4.875	4.375	Max V [600]
	1.000	1.000	1.000	1.000	1.000	1.000	R-Squared [600]
	37:42:22	46:18:22	46:18:22	46:22:22	44:22:22	29:22:22	t at Max V [600]
	39:39:22	44:07:11	45:25:35	?????	42:53:31	27:45:18	Lagtime [600]
C	-3.500	3.100	-5.225	7.250	3.850	3.375	Max V [600]
	1.000	1.000	1.000	1.000	1.000	1.000	R-Squared [600]
	34:14:22	26:50:22	36:54:22	38:58:22	23:50:22	36:06:22	t at Max V [600]
	36:40:13	24:48:28	38:11:33	37:57:00	22:05:35	33:41:35	Lagtime [600]
D	-4.025	4.950	3.250	3.100	2.475	2.900	Max V [600]
	1.000	1.000	1.000	1.000	1.000	1.000	R-Squared [600]
	31:06:22	31:42:22	37:34:22	27:02:22	30:10:22	26:50:22	t at Max V [600]
	32:59:33	30:16:12	35:12:18	24:42:12	28:03:38	25:20:32	Lagtime [600]
